t,theta,alpha,theta_dot,alpha_dot,voltage,mode
0.000000,0.000000,0.174533,0.000000,0.000000,-3.790711,1
0.001000,-0.000188,0.174365,-0.376414,-0.336195,-3.491801,1
0.002000,-0.000736,0.173877,-0.717750,-0.639258,-3.218399,1
0.003000,-0.001608,0.173101,-1.027290,-0.912334,-2.968069,1
0.004000,-0.002776,0.172066,-1.307956,-1.158215,-2.738652,1
0.005000,-0.004211,0.170797,-1.562355,-1.379397,-2.528235,1
0.006000,-0.005889,0.169318,-1.792826,-1.578111,-2.335109,1
0.007000,-0.007786,0.167651,-2.001468,-1.756363,-2.157746,1
0.008000,-0.009881,0.165815,-2.190175,-1.915961,-1.994776,1
0.009000,-0.012157,0.163828,-2.360657,-2.058537,-1.844961,1
0.010000,-0.014594,0.161706,-2.514466,-2.185572,-1.707185,1
0.011000,-0.017178,0.159464,-2.653011,-2.298408,-1.580434,1
0.012000,-0.019893,0.157115,-2.777574,-2.398268,-1.463789,1
0.013000,-0.022727,0.154673,-2.889324,-2.486267,-1.356411,1
0.014000,-0.025666,0.152149,-2.989330,-2.563422,-1.257535,1
0.015000,-0.028700,0.149552,-3.078568,-2.630665,-1.166461,1
0.016000,-0.031818,0.146892,-3.157935,-2.688849,-1.082547,1
0.017000,-0.035011,0.144178,-3.228249,-2.738754,-1.005207,1
0.018000,-0.038270,0.141418,-3.290265,-2.781097,-0.933899,1
0.019000,-0.041588,0.138620,-3.344673,-2.816537,-0.868129,1
0.020000,-0.044956,0.135789,-3.392108,-2.845678,-0.807439,1
0.021000,-0.048369,0.132931,-3.433154,-2.869075,-0.751409,1
0.022000,-0.051819,0.130053,-3.468346,-2.887239,-0.699654,1
0.023000,-0.055303,0.127159,-3.498178,-2.900638,-0.651816,1
0.024000,-0.058813,0.124254,-3.523104,-2.909702,-0.607569,1
0.025000,-0.062346,0.121342,-3.543538,-2.914828,-0.566611,1
0.026000,-0.065898,0.118427,-3.559864,-2.916379,-0.528664,1
0.027000,-0.069464,0.115511,-3.572434,-2.914688,-0.493472,1
0.028000,-0.073041,0.112599,-3.581569,-2.910062,-0.460801,1
0.029000,-0.076626,0.109692,-3.587566,-2.902782,-0.430436,1
0.030000,-0.080215,0.106795,-3.590697,-2.893103,-0.402176,1
0.031000,-0.083805,0.103908,-3.591211,-2.881263,-0.375841,1
0.032000,-0.087396,0.101033,-3.589336,-2.867477,-0.351263,1
0.033000,-0.090983,0.098174,-3.585281,-2.851943,-0.328289,1
0.034000,-0.094565,0.095330,-3.579237,-2.834840,0.000000,1
0.035000,-0.098122,0.092523,-3.534356,-2.780937,-0.320687,1
0.036000,-0.101653,0.089750,-3.529082,-2.765231,0.000000,1
0.037000,-0.105161,0.087010,-3.485751,-2.713444,-0.310955,1
0.038000,-0.108644,0.084304,-3.480972,-2.698855,0.311775,1
0.039000,-0.112085,0.081648,-3.401323,-2.612932,-0.334213,1
0.040000,-0.115486,0.079040,-3.401161,-2.603392,0.000000,1
0.041000,-0.118867,0.076461,-3.361034,-2.555893,-0.317860,1
0.042000,-0.122228,0.073910,-3.360501,-2.546604,0.000000,1
0.043000,-0.125569,0.071386,-3.321888,-2.501140,0.000000,1
0.044000,-0.128872,0.068907,-3.284103,-2.456758,0.000000,1
0.045000,-0.132138,0.066472,-3.247138,-2.413447,-0.315704,1
0.046000,-0.135386,0.064061,-3.249666,-2.408259,0.313092,1
0.047000,-0.138599,0.061692,-3.175776,-2.330112,-0.328374,1
0.048000,-0.141777,0.059363,-3.181553,-2.328598,0.000000,1
0.049000,-0.144942,0.057054,-3.147652,-2.289317,0.000000,1
0.050000,-0.148073,0.054784,-3.114545,-2.251062,0.000000,1
0.051000,-0.151171,0.052552,-3.082225,-2.213823,0.000000,1
0.052000,-0.154238,0.050356,-3.050684,-2.177586,-0.312970,1
0.053000,-0.157292,0.048178,-3.058491,-2.179343,0.320181,1
0.054000,-0.160316,0.046034,-2.988825,-2.107037,-0.317964,1
0.055000,-0.163310,0.043925,-2.998832,-2.111408,0.316953,1
0.056000,-0.166274,0.041849,-2.931023,-2.041365,-0.319740,1
0.057000,-0.169211,0.039804,-2.942788,-2.047910,0.316592,1
0.058000,-0.172121,0.037791,-2.876451,-1.979747,-0.318953,1
0.059000,-0.175004,0.035807,-2.889617,-1.988110,0.318507,1
0.060000,-0.177861,0.033852,-2.824442,-1.921516,-0.316136,1
0.061000,-0.180692,0.031926,-2.838719,-1.931403,0.322216,1
0.062000,-0.183499,0.030027,-2.774456,-1.866126,-0.311723,1
0.063000,-0.186281,0.028155,-2.789610,-1.877299,0.327330,1
0.064000,-0.189039,0.026310,-2.726061,-1.813137,0.000000,1
0.065000,-0.191753,0.024509,-2.703952,-1.788967,0.000000,1
0.066000,-0.194447,0.022732,-2.682501,-1.765636,0.000000,1
0.067000,-0.197119,0.020978,-2.661700,-1.743134,0.000000,1
0.068000,-0.199770,0.019245,-2.641541,-1.721449,0.314884,1
0.069000,-0.202382,0.017553,-2.582931,-1.663045,-0.314702,1
0.070000,-0.204975,0.015881,-2.603286,-1.680654,0.328407,1
0.071000,-0.207549,0.014230,-2.544214,-1.622190,0.000000,1
0.072000,-0.210085,0.012617,-2.526725,-1.603844,0.000000,1
0.073000,-0.212603,0.011022,-2.509826,-1.586250,0.314979,1
0.074000,-0.215085,0.009463,-2.454385,-1.531828,-0.312213,1
0.075000,-0.217551,0.007921,-2.477621,-1.553136,0.333082,1
0.076000,-0.220000,0.006395,-2.421058,-1.497992,0.000000,1
0.077000,-0.222414,0.004905,-2.406641,-1.483493,0.315372,1
0.078000,-0.224794,0.003447,-2.353581,-1.432057,-0.310049,1
0.079000,-0.227160,0.002003,-2.378958,-1.456113,0.336833,1
0.080000,-0.229512,0.000573,-2.324286,-1.403462,0.310094,1
0.081000,-0.231811,-0.000806,-2.273667,-1.354864,-0.313498,1
0.082000,-0.234098,-0.002174,-2.301226,-1.381501,0.335006,1
0.083000,-0.236373,-0.003530,-2.248501,-1.331198,0.000000,1
0.084000,-0.238616,-0.004857,-2.238101,-1.321694,0.323136,1
0.085000,-0.240829,-0.006155,-2.188030,-1.274245,0.000000,1
0.086000,-0.243013,-0.007425,-2.178775,-1.266139,0.313926,1
0.087000,-0.245167,-0.008668,-2.130975,-1.221164,0.000000,1
0.088000,-0.247294,-0.009886,-2.122814,-1.214396,0.000000,1
0.089000,-0.249413,-0.011097,-2.115084,-1.208182,0.322360,1
0.090000,-0.251504,-0.012283,-2.067747,-1.164072,0.000000,1
0.091000,-0.253569,-0.013445,-2.061067,-1.159138,0.316939,1
0.092000,-0.255607,-0.014583,-2.015440,-1.116938,0.000000,1
0.093000,-0.257620,-0.015698,-2.009765,-1.113232,0.313396,1
0.094000,-0.259607,-0.016791,-1.965574,-1.072668,0.000000,1
0.095000,-0.261570,-0.017862,-1.960864,-1.070138,0.311504,1
0.096000,-0.263510,-0.018913,-1.917863,-1.030965,0.000000,1
0.097000,-0.265426,-0.019943,-1.914080,-1.029566,0.311059,1
0.098000,-0.267319,-0.020953,-1.872055,-0.991566,0.000000,1
0.099000,-0.269189,-0.021945,-1.869163,-0.991255,0.311878,1
0.100000,-0.271038,-0.022918,-1.827922,-0.954237,0.000000,1
0.101000,-0.272865,-0.023872,-1.825888,-0.954973,0.313796,1
0.102000,-0.274670,-0.024809,-1.785263,-0.918767,0.000000,1
0.103000,-0.276455,-0.025729,-1.784058,-0.920511,0.316667,1
0.104000,-0.278219,-0.026631,-1.743901,-0.884967,0.000000,1
0.105000,-0.279962,-0.027518,-1.743494,-0.887684,0.320358,1
0.106000,-0.281686,-0.028388,-1.703677,-0.852671,0.000000,1
0.107000,-0.283390,-0.029242,-1.704042,-0.856327,0.324751,1
0.108000,-0.285074,-0.030081,-1.664452,-0.821728,0.000000,1
0.109000,-0.286739,-0.030905,-1.665562,-0.826293,0.329740,1
0.110000,-0.288385,-0.031714,-1.626100,-0.792006,0.313529,1
0.111000,-0.289992,-0.032490,-1.589117,-0.760190,0.000000,1
0.112000,-0.291583,-0.033253,-1.591390,-0.766141,0.320917,1
0.113000,-0.293155,-0.034004,-1.554178,-0.734281,0.000000,1
0.114000,-0.294711,-0.034741,-1.557116,-0.741041,0.328511,1
0.115000,-0.296249,-0.035466,-1.519632,-0.709090,0.313528,1
0.116000,-0.297751,-0.036160,-1.484435,-0.679415,0.000000,1
0.117000,-0.299238,-0.036844,-1.488425,-0.687426,0.323005,1
0.118000,-0.300708,-0.037516,-1.452671,-0.657374,0.000000,1
0.119000,-0.302163,-0.038178,-1.457258,-0.666112,0.332395,1
0.120000,-0.303602,-0.038829,-1.420944,-0.635674,0.317986,1
0.121000,-0.305006,-0.039450,-1.386814,-0.607406,0.000000,1
0.122000,-0.306396,-0.040063,-1.392359,-0.617279,0.328893,1
0.123000,-0.307771,-0.040665,-1.357436,-0.588390,0.315357,1
0.124000,-0.309112,-0.041240,-1.324564,-0.561537,0.000000,1
0.125000,-0.310439,-0.041807,-1.331002,-0.572467,0.327470,1
0.126000,-0.311753,-0.042366,-1.297147,-0.544801,0.314550,1
0.127000,-0.313035,-0.042898,-1.265247,-0.519073,0.000000,1
0.128000,-0.314303,-0.043423,-1.272518,-0.530987,0.327615,1
0.129000,-0.315559,-0.043940,-1.239481,-0.504288,0.315108,1
0.130000,-0.316783,-0.044432,-1.208328,-0.479455,0.000000,1
0.131000,-0.317996,-0.044918,-1.216380,-0.492291,0.328922,1
0.132000,-0.319196,-0.045397,-1.183964,-0.466357,0.316670,1
0.133000,-0.320364,-0.045852,-1.153385,-0.442239,0.000000,1
0.134000,-0.321522,-0.046301,-1.162171,-0.455936,0.331063,1
0.135000,-0.322668,-0.046744,-1.130226,-0.430611,0.318945,1
0.136000,-0.323783,-0.047163,-1.100086,-0.407067,0.000000,1
0.137000,-0.324888,-0.047577,-1.109562,-0.421571,0.333780,1
0.138000,-0.325982,-0.047986,-1.077974,-0.396733,0.321701,1
0.139000,-0.327045,-0.048371,-1.048172,-0.373653,0.310935,1
0.140000,-0.328079,-0.048734,-1.019976,-0.352157,0.000000,1
0.141000,-0.329104,-0.049094,-1.030361,-0.367707,0.327220,1
0.142000,-0.330120,-0.049450,-1.000488,-0.344684,0.316155,1
0.143000,-0.331106,-0.049784,-0.972249,-0.323268,0.000000,1
0.144000,-0.332084,-0.050116,-0.983210,-0.339487,0.332447,1
0.145000,-0.333052,-0.050444,-0.953272,-0.316517,0.321083,1
0.146000,-0.333991,-0.050750,-0.924995,-0.295175,0.310931,1
0.147000,-0.334903,-0.051035,-0.898213,-0.275302,0.000000,1
0.148000,-0.335807,-0.051319,-0.909948,-0.292401,0.328210,1
0.149000,-0.336702,-0.051600,-0.881302,-0.270805,0.317520,1
0.150000,-0.337570,-0.051861,-0.854212,-0.250732,0.000000,1
0.151000,-0.338430,-0.052120,-0.866432,-0.268388,0.334536,1
0.152000,-0.339282,-0.052378,-0.837494,-0.246602,0.323364,1
0.153000,-0.340106,-0.052614,-0.810164,-0.226386,0.313359,1
0.154000,-0.340903,-0.052831,-0.784283,-0.207585,0.000000,1
0.155000,-0.341694,-0.053048,-0.797165,-0.225982,0.331081,1
0.156000,-0.342477,-0.053264,-0.769312,-0.205339,0.320412,1
0.157000,-0.343233,-0.053460,-0.742984,-0.186183,0.310845,1
0.158000,-0.343964,-0.053637,-0.718031,-0.168366,0.000000,1
0.159000,-0.344689,-0.053815,-0.731505,-0.187418,0.329019,1
0.160000,-0.345407,-0.053992,-0.704492,-0.167666,0.318659,1
0.161000,-0.346098,-0.054151,-0.678948,-0.149343,0.000000,1
0.162000,-0.346784,-0.054310,-0.692782,-0.168797,0.336259,1
0.163000,-0.347463,-0.054468,-0.665239,-0.148592,0.325224,1
0.164000,-0.348115,-0.054608,-0.639245,-0.129889,0.315309,1
0.165000,-0.348742,-0.054729,-0.614648,-0.112540,0.000000,1
0.166000,-0.349364,-0.054851,-0.628990,-0.132544,0.333284,1
0.167000,-0.349980,-0.054974,-0.602315,-0.113231,0.322576,1
0.168000,-0.350570,-0.055079,-0.577132,-0.095362,0.312942,1
0.169000,-0.351135,-0.055166,-0.553296,-0.078794,0.000000,1
0.170000,-0.351695,-0.055255,-0.568087,-0.099274,0.331116,1
0.171000,-0.352251,-0.055345,-0.542120,-0.080684,0.320609,1
0.172000,-0.352780,-0.055417,-0.517607,-0.063496,0.311145,1
0.173000,-0.353286,-0.055472,-0.494404,-0.047572,0.000000,1
0.174000,-0.353788,-0.055530,-0.509590,-0.068464,0.329385,1
0.175000,-0.354285,-0.055590,-0.484224,-0.050479,0.318992,1
0.176000,-0.354758,-0.055632,-0.460283,-0.033865,0.000000,1
0.177000,-0.355226,-0.055676,-0.475693,-0.054988,0.336427,1
0.178000,-0.355688,-0.055722,-0.449681,-0.036400,0.325267,1
0.179000,-0.356126,-0.055750,-0.425188,-0.019271,0.315201,1
0.180000,-0.356539,-0.055761,-0.402064,-0.003457,0.000000,1
0.181000,-0.356949,-0.055775,-0.417810,-0.024914,0.332763,1
0.182000,-0.357354,-0.055791,-0.392575,-0.007079,0.321854,1
0.183000,-0.357735,-0.055790,-0.368813,0.009343,0.312005,1
0.184000,-0.358093,-0.055773,-0.346381,0.024490,0.000000,1
0.185000,-0.358447,-0.055760,-0.362413,0.002760,0.329569,1
0.186000,-0.358797,-0.055748,-0.337846,0.019958,0.318829,1
0.187000,-0.359123,-0.055720,-0.314719,0.035778,0.000000,1
0.188000,-0.359446,-0.055696,-0.330895,0.013916,0.335545,1
0.189000,-0.359765,-0.055673,-0.305733,0.031694,0.324076,1
0.190000,-0.360058,-0.055633,-0.282099,0.048009,0.313710,1
0.191000,-0.360329,-0.055577,-0.259846,0.063006,0.000000,1
0.192000,-0.360598,-0.055525,-0.276256,0.040939,0.330500,1
0.193000,-0.360862,-0.055476,-0.251934,0.057931,0.319336,1
0.194000,-0.361102,-0.055410,-0.229092,0.073513,0.000000,1
0.195000,-0.361339,-0.055348,-0.245605,0.051365,0.335312,1
0.196000,-0.361573,-0.055288,-0.220790,0.068852,0.323500,1
0.197000,-0.361782,-0.055211,-0.197532,0.084855,0.312814,1
0.198000,-0.361968,-0.055119,-0.175680,0.099519,0.000000,1
0.199000,-0.362152,-0.055030,-0.192373,0.077234,0.328896,1
0.200000,-0.362333,-0.054945,-0.168512,0.093845,0.317479,1
0.201000,-0.362490,-0.054843,-0.146147,0.109032,0.000000,1
0.202000,-0.362645,-0.054745,-0.162905,0.086717,0.332766,1
0.203000,-0.362795,-0.054650,-0.138625,0.103763,0.320763,1
0.204000,-0.362923,-0.054539,-0.115911,0.119319,0.000000,1
0.205000,-0.363047,-0.054430,-0.132728,0.096983,0.335357,1
0.206000,-0.363168,-0.054325,-0.108179,0.114323,0.322886,1
0.207000,-0.363264,-0.054203,-0.085253,0.130122,0.311594,1
0.208000,-0.363339,-0.054065,-0.063791,0.144531,0.000000,1
0.209000,-0.363411,-0.053932,-0.080723,0.122138,0.326417,1
0.210000,-0.363480,-0.053802,-0.057374,0.138388,0.314540,1
0.211000,-0.363527,-0.053656,-0.035560,0.153180,0.000000,1
0.212000,-0.363571,-0.053514,-0.052509,0.130819,0.328637,1
0.213000,-0.363611,-0.053375,-0.028893,0.147373,0.316298,1
0.214000,-0.363629,-0.053220,-0.006869,0.162417,0.000000,1
0.215000,-0.363644,-0.053069,-0.023827,0.140097,0.329759,1
0.216000,-0.363656,-0.052920,-0.000074,0.156834,0.317060,1
0.217000,-0.363645,-0.052756,0.022046,0.172023,0.000000,1
0.218000,-0.363632,-0.052595,0.005086,0.149753,0.329956,1
0.219000,-0.363615,-0.052437,0.028871,0.166577,0.316981,1
0.220000,-0.363575,-0.052263,0.050992,0.181823,0.000000,1
0.221000,-0.363532,-0.052092,0.034039,0.159616,0.329368,1
0.222000,-0.363487,-0.051924,0.057769,0.176445,0.316187,1
0.223000,-0.363418,-0.051740,0.079813,0.191677,0.000000,1
0.224000,-0.363346,-0.051559,0.062876,0.169546,0.328111,1
0.225000,-0.363272,-0.051381,0.086479,0.186315,0.314782,1
0.226000,-0.363174,-0.051187,0.108381,0.201473,0.000000,1
0.227000,-0.363074,-0.050997,0.091472,0.179431,0.326280,1
0.228000,-0.362971,-0.050809,0.114888,0.196086,0.312853,1
0.229000,-0.362845,-0.050605,0.136595,0.211124,0.000000,1
0.230000,-0.362717,-0.050405,0.119725,0.189185,0.323954,1
0.231000,-0.362586,-0.050208,0.142904,0.205681,0.310470,1
0.232000,-0.362432,-0.049995,0.164371,0.220559,0.000000,1
0.233000,-0.362276,-0.049785,0.147550,0.198737,0.321198,1
0.234000,-0.362117,-0.049578,0.170451,0.215038,0.000000,1
0.235000,-0.361955,-0.049374,0.153729,0.193358,0.330586,1
0.236000,-0.361790,-0.049172,0.177888,0.210913,0.315940,1
0.237000,-0.361600,-0.048953,0.200187,0.226708,0.000000,1
0.238000,-0.361409,-0.048737,0.183509,0.205141,0.325200,1
0.239000,-0.361213,-0.048524,0.207062,0.222188,0.310792,1
0.240000,-0.360995,-0.048294,0.228790,0.237510,0.000000,1
0.241000,-0.360775,-0.048067,0.212174,0.216078,0.319897,1
0.242000,-0.360551,-0.047843,0.235146,0.232645,0.000000,1
0.243000,-0.360324,-0.047621,0.218637,0.211367,0.327784,1
0.244000,-0.360094,-0.047400,0.242693,0.229025,0.312595,1
0.245000,-0.359840,-0.047163,0.264828,0.244867,0.000000,1
0.246000,-0.359583,-0.046929,0.248381,0.223726,0.320507,1
0.247000,-0.359323,-0.046697,0.271615,0.240675,0.000000,1
0.248000,-0.359060,-0.046467,0.255279,0.219693,0.327298,1
0.249000,-0.358793,-0.046238,0.279465,0.237609,0.311628,1
0.250000,-0.358502,-0.045992,0.301672,0.253653,0.000000,1
0.251000,-0.358208,-0.045749,0.285405,0.232817,0.318570,1
0.252000,-0.357911,-0.045508,0.308596,0.249861,0.000000,1
0.253000,-0.357611,-0.045268,0.292445,0.229191,0.324467,1
0.254000,-0.357306,-0.045030,0.316483,0.247103,0.000000,1
0.255000,-0.356998,-0.044793,0.300441,0.226591,0.329415,1
0.256000,-0.356685,-0.044558,0.325203,0.245253,0.312775,1
0.257000,-0.356349,-0.044304,0.347865,0.261927,0.000000,1
0.258000,-0.356009,-0.044052,0.331892,0.241565,0.318113,1
0.259000,-0.355665,-0.043802,0.355343,0.259054,0.000000,1
0.260000,-0.355318,-0.043553,0.339489,0.238862,0.322539,1
0.261000,-0.354966,-0.043305,0.363609,0.257050,0.000000,1
0.262000,-0.354611,-0.043058,0.347868,0.237023,0.326137,1
0.263000,-0.354250,-0.042812,0.372551,0.255808,0.000000,1
0.264000,-0.353886,-0.042566,0.356919,0.235941,0.328981,1
0.265000,-0.353516,-0.042320,0.382067,0.255229,0.311394,1
0.266000,-0.353123,-0.042056,0.404997,0.272418,0.000000,1
0.267000,-0.352725,-0.041794,0.389439,0.252708,0.314886,1
0.268000,-0.352324,-0.041532,0.412934,0.270499,0.000000,1
0.269000,-0.351919,-0.041271,0.397500,0.250968,0.317619,1
0.270000,-0.351509,-0.041011,0.421461,0.269266,0.000000,1
0.271000,-0.351096,-0.040752,0.406147,0.249909,0.319662,1
0.272000,-0.350677,-0.040492,0.430485,0.268629,0.000000,1
0.273000,-0.350254,-0.040233,0.415288,0.249442,0.321077,1
0.274000,-0.349827,-0.039974,0.439923,0.268506,0.000000,1
0.275000,-0.349395,-0.039715,0.424841,0.249489,0.321921,1
0.276000,-0.348957,-0.039456,0.449700,0.268828,0.000000,1
0.277000,-0.348515,-0.039197,0.434731,0.249977,0.322246,1
0.278000,-0.348068,-0.038937,0.459749,0.269528,0.000000,1
0.279000,-0.347615,-0.038677,0.444892,0.250844,0.322097,1
0.280000,-0.347158,-0.038416,0.470009,0.270550,0.000000,1
0.281000,-0.346695,-0.038155,0.455265,0.252033,0.321516,1
0.282000,-0.346228,-0.037893,0.480427,0.271842,0.000000,1
0.283000,-0.345754,-0.037630,0.465794,0.253491,0.320541,1
0.284000,-0.345276,-0.037367,0.490954,0.273358,0.000000,1
0.285000,-0.344792,-0.037103,0.476433,0.255175,0.319206,1
0.286000,-0.344303,-0.036838,0.501545,0.275056,0.000000,1
0.287000,-0.343809,-0.036572,0.487138,0.257043,0.317541,1
0.288000,-0.343309,-0.036305,0.512163,0.276901,0.000000,1
0.289000,-0.342804,-0.036037,0.497870,0.259058,0.315575,1
0.290000,-0.342294,-0.035768,0.522771,0.278859,0.000000,1
0.291000,-0.341778,-0.035498,0.508594,0.261188,0.313333,1
0.292000,-0.341257,-0.035227,0.533339,0.280901,0.000000,1
0.293000,-0.340731,-0.034955,0.519279,0.263404,0.310838,1
0.294000,-0.340200,-0.034681,0.543838,0.283001,0.000000,1
0.295000,-0.339663,-0.034407,0.529897,0.265680,0.000000,1
0.296000,-0.339140,-0.034150,0.516113,0.248539,0.324523,1
0.297000,-0.338610,-0.033891,0.542641,0.270119,0.000000,1
0.298000,-0.338075,-0.033629,0.528955,0.253131,0.319913,1
0.299000,-0.337533,-0.033365,0.555018,0.274324,0.000000,1
0.300000,-0.336984,-0.033099,0.541436,0.257495,0.315273,1
0.301000,-0.336430,-0.032831,0.567034,0.278303,0.000000,1
0.302000,-0.335870,-0.032561,0.553560,0.261639,0.310600,1
0.303000,-0.335304,-0.032290,0.578693,0.282063,0.000000,1
0.304000,-0.334732,-0.032016,0.565332,0.265569,0.000000,1
0.305000,-0.334173,-0.031758,0.552124,0.249252,0.321299,1
0.306000,-0.333608,-0.031498,0.578849,0.271296,0.000000,1
0.307000,-0.333035,-0.031235,0.565737,0.255130,0.314982,1
0.308000,-0.332456,-0.030969,0.591782,0.276580,0.000000,1
0.309000,-0.331871,-0.030701,0.578772,0.260574,0.000000,1
0.310000,-0.331299,-0.030448,0.565912,0.244741,0.323695,1
0.311000,-0.330719,-0.030192,0.593290,0.267561,0.000000,1
0.312000,-0.330132,-0.029932,0.580519,0.251871,0.316076,1
0.313000,-0.329539,-0.029669,0.607048,0.273935,0.000000,1
0.314000,-0.328938,-0.029403,0.594372,0.258397,0.000000,1
0.315000,-0.328350,-0.029152,0.581845,0.243030,0.323080,1
0.316000,-0.327754,-0.028898,0.609488,0.266253,0.000000,1
0.317000,-0.327151,-0.028639,0.597045,0.251025,0.314440,1
0.318000,-0.326540,-0.028377,0.623708,0.273366,0.000000,1
0.319000,-0.325923,-0.028111,0.611358,0.258288,0.000000,1
0.320000,-0.325318,-0.027860,0.599155,0.243379,0.319956,1
0.321000,-0.324705,-0.027605,0.626744,0.266698,0.000000,1
0.322000,-0.324084,-0.027346,0.614624,0.251927,0.310526,1
0.323000,-0.323456,-0.027083,0.641133,0.274270,-0.311647,1
0.324000,-0.322840,-0.026834,0.590479,0.222566,0.337378,1
0.325000,-0.322235,-0.026599,0.620604,0.248436,0.312271,1
0.326000,-0.321601,-0.026339,0.647542,0.271275,-0.310390,1
0.327000,-0.320978,-0.026093,0.597243,0.219996,0.338210,1
0.328000,-0.320366,-0.025860,0.627678,0.246249,0.312710,1
0.329000,-0.319725,-0.025602,0.654875,0.269421,-0.310304,1
0.330000,-0.319095,-0.025359,0.604778,0.218419,0.337992,1
0.331000,-0.318475,-0.025127,0.635387,0.244923,0.312207,1
0.332000,-0.317826,-0.024870,0.662721,0.268311,-0.311061,1
0.333000,-0.317188,-0.024627,0.612719,0.217482,0.337019,1
0.334000,-0.316560,-0.024397,0.643405,0.244144,0.311028,1
0.335000,-0.315903,-0.024141,0.670790,0.267664,-0.312424,1
0.336000,-0.315257,-0.023898,0.620805,0.216935,0.335503,1
