t,theta,alpha,theta_dot,alpha_dot,voltage
0.000000,0.000000,-3.141593,-0.000000,0.000000,0.000000
0.002000,-0.000554,-3.141060,-0.553429,0.531437,-2.500000
0.004000,-0.002210,-3.139471,-1.101016,1.057021,-2.500000
0.006000,-0.004954,-3.136837,-1.642088,1.575868,-2.500000
0.008000,-0.008773,-3.133172,-2.175918,2.087041,-2.500000
0.010000,-0.013652,-3.128494,-2.701692,2.589529,-2.500000
0.012000,-0.019574,-3.122821,-3.218489,3.082218,-2.500000
0.014000,-0.026520,-3.116173,-3.725265,3.563886,-2.500000
0.016000,-0.034468,-3.108574,-4.220843,4.033190,-2.500000
0.018000,-0.043395,-3.100049,-4.703917,4.488669,-2.500000
0.020000,-0.053274,-3.090629,-5.173065,4.928761,-2.500000
0.022000,-0.064077,-3.080346,-5.626764,5.351823,-2.500000
0.024000,-0.075770,-3.069234,-6.063432,5.756164,-2.500000
0.026000,-0.088318,-3.057335,-6.481463,6.140093,-2.500000
0.028000,-0.101682,-3.044689,-6.879287,6.501966,-2.500000
0.030000,-0.115821,-3.031342,-7.255420,6.840247,-2.500000
0.032000,-0.130689,-3.017344,-7.608529,7.153566,-2.500000
0.034000,-0.146239,-3.002746,-7.937489,7.440776,-2.500000
0.036000,-0.162422,-2.987599,-8.241433,7.701003,-2.500000
0.038000,-0.179187,-2.971960,-8.519794,7.933684,-2.500000
0.040000,-0.196484,-2.955883,-8.772329,8.138592,-2.500000
0.042000,-0.214259,-2.939424,-8.999132,8.315840,-2.500000
0.044000,-0.232463,-2.922638,-9.200628,8.465876,-2.500000
0.046000,-0.251046,-2.905578,-9.377548,8.589456,-2.500000
0.048000,-0.269958,-2.888297,-9.530899,8.687609,-2.500000
0.050000,-0.289154,-2.870844,-9.661917,8.761588,-2.500000
0.052000,-0.308592,-2.853266,-9.772018,8.812819,-2.500000
0.054000,-0.328229,-2.835607,-9.862749,8.842852,-2.500000
0.056000,-0.348031,-2.817907,-9.935737,8.853309,-2.500000
0.058000,-0.367962,-2.800205,-9.992645,8.845836,-2.500000
0.060000,-0.387992,-2.782535,-10.035128,8.822066,-2.500000
0.062000,-0.408094,-2.764927,-10.064806,8.783589,-2.500000
0.064000,-0.428243,-2.747409,-10.083234,8.731922,-2.500000
0.066000,-0.448420,-2.730007,-10.091886,8.668496,-2.500000
0.068000,-0.468605,-2.712742,-10.092140,8.594639,-2.500000
0.070000,-0.488784,-2.695635,-10.085270,8.511578,-2.500000
0.072000,-0.508943,-2.678701,-10.072445,8.420426,-2.500000
0.074000,-0.529070,-2.661958,-10.054725,8.322195,-2.500000
0.076000,-0.549159,-2.645417,-10.033070,8.217789,-2.500000
0.078000,-0.569201,-2.629090,-10.008339,8.108016,-2.500000
0.080000,-0.589191,-2.612988,-9.981297,7.993594,-2.500000
0.082000,-0.609125,-2.597118,-9.952624,7.875156,-2.500000
0.084000,-0.629000,-2.581489,-9.922920,7.753259,-2.500000
0.086000,-0.648816,-2.566107,-9.892712,7.628390,-2.500000
0.088000,-0.668571,-2.550978,-9.862460,7.500974,-2.500000
0.090000,-0.688266,-2.536105,-9.832566,7.371383,-2.500000
0.092000,-0.707902,-2.521493,-9.803377,7.239937,-2.500000
0.094000,-0.727480,-2.507146,-9.775195,7.106913,-2.500000
0.096000,-0.747004,-2.493067,-9.748277,6.972552,-2.500000
0.098000,-0.766474,-2.479257,-9.722843,6.837060,-2.500000
0.100000,-0.785896,-2.465719,-9.699081,6.700613,-2.500000
0.102000,-0.805058,-2.452615,-9.464618,6.404481,-0.198935
0.104000,-0.823757,-2.440100,-9.236021,6.111286,-0.149230
0.106000,-0.842004,-2.428169,-9.012965,5.820796,-0.100321
0.108000,-0.859811,-2.416816,-8.795122,5.532782,-0.052206
0.110000,-0.877187,-2.406037,-8.582162,5.247018,-0.004886
0.112000,-0.894141,-2.395828,-8.373755,4.963285,0.041640
0.114000,-0.910683,-2.386184,-8.169574,4.681370,0.087371
0.116000,-0.926821,-2.377102,-7.969292,4.401068,0.132307
0.118000,-0.942562,-2.368580,-7.772586,4.122177,0.176447
0.120000,-0.957912,-2.360614,-7.579135,3.844506,0.219789
0.122000,-0.972879,-2.353202,-7.388624,3.567866,0.262330
0.124000,-0.987467,-2.346342,-7.200737,3.292075,0.304067
0.126000,-1.001682,-2.340034,-7.015165,3.016957,0.344996
0.128000,-1.015528,-2.334275,-6.831599,2.742337,0.385112
0.130000,-1.029009,-2.329065,-6.649733,2.468048,0.424409
0.132000,-1.042127,-2.324403,-6.469262,2.193921,0.462880
0.134000,-1.054886,-2.320290,-6.289884,1.919795,0.500517
0.136000,-1.067286,-2.316725,-6.111297,1.645505,0.537312
0.138000,-1.079330,-2.313709,-5.933199,1.370890,0.573252
0.140000,-1.091018,-2.311242,-5.755287,1.095789,0.608328
0.142000,-1.102350,-2.309326,-5.577258,0.820037,0.642526
0.144000,-1.113326,-2.307963,-5.398807,0.543471,0.675833
0.146000,-1.123944,-2.307154,-5.219625,0.265922,0.708232
0.148000,-1.134203,-2.306901,-5.039402,-0.012779,0.739707
0.150000,-1.144037,-2.307247,-4.795153,-0.333297,1.590149
0.152000,-1.153386,-2.308233,-4.552978,-0.653070,1.571233
0.154000,-1.162251,-2.309858,-4.312229,-0.972492,1.553594
0.156000,-1.170635,-2.312123,-4.072267,-1.291952,1.537174
0.158000,-1.178540,-2.315026,-3.832463,-1.611836,1.521921
0.160000,-1.185965,-2.318570,-3.592186,-1.932532,1.507787
0.162000,-1.192909,-2.322757,-3.350806,-2.254434,1.494728
0.164000,-1.199368,-2.327589,-3.107688,-2.577943,1.482707
0.166000,-1.205338,-2.333070,-2.862187,-2.903474,1.471689
0.168000,-1.210815,-2.339204,-2.613646,-3.231454,1.461647
0.170000,-1.215790,-2.345998,-2.361391,-3.562332,1.452555
0.172000,-1.220258,-2.353456,-2.104729,-3.896579,1.444394
0.174000,-1.224206,-2.361586,-1.842938,-4.234694,1.437148
0.176000,-1.227626,-2.370397,-1.575269,-4.577207,1.430806
0.178000,-1.230503,-2.379898,-1.300937,-4.924686,1.425363
0.180000,-1.232824,-2.390100,-1.019116,-5.277740,1.420816
0.182000,-1.234574,-2.401013,-0.728932,-5.637029,1.417172
0.184000,-1.235734,-2.412652,-0.429461,-6.003264,1.414438
0.186000,-1.236285,-2.425032,-0.119716,-6.377219,1.412632
0.188000,-1.236205,-2.438167,0.201356,-6.759740,1.411777
0.190000,-1.235471,-2.452077,0.534883,-7.151748,1.411900
0.192000,-1.234057,-2.466781,0.882076,-7.554250,1.413041
0.194000,-1.231933,-2.482302,1.244238,-7.968349,1.415245
0.196000,-1.229069,-2.498663,1.622772,-8.395256,1.418569
0.198000,-1.225430,-2.515892,2.019189,-8.836291,1.423079
0.200000,-1.220979,-2.534019,2.435109,-9.292901,1.428853
0.202000,-1.215675,-2.553075,2.872272,-9.766657,1.435985
0.204000,-1.209474,-2.573098,3.332529,-10.259263,1.444583
0.206000,-1.202328,-2.594127,3.817835,-10.772545,1.454771
0.208000,-1.194184,-2.616204,4.330227,-11.308439,1.466694
0.210000,-1.184987,-2.639377,4.871782,-11.868953,1.480519
0.212000,-1.174676,-2.663698,5.444545,-12.456110,1.496437
0.214000,-1.163186,-2.689221,6.050421,-13.071842,1.514668
0.216000,-1.150450,-2.716006,6.690998,-13.717833,1.535460
0.218000,-1.136397,-2.744115,7.367288,-14.395267,1.559097
0.220000,-1.120955,-2.773610,8.079351,-15.104467,1.585898
0.222000,-1.104055,-2.804554,8.825756,-15.844364,1.616216
0.224000,-1.085630,-2.837007,9.602858,-16.611783,1.650442
0.226000,-1.065625,-2.871018,10.403877,-17.400506,1.688999
0.228000,-1.044003,-2.906619,11.217810,-18.200178,1.732331
0.230000,-1.020753,-2.943818,12.028363,-18.995190,1.780884
0.232000,-0.995903,-2.982586,12.813229,-19.763910,1.835086
0.234000,-0.969532,-3.022842,13.544275,-20.478804,1.895300
0.236000,-0.941779,-3.064448,14.189296,-21.108160,1.961781
0.238000,-0.912849,-3.107201,14.715772,-21.619825,2.034614
0.240000,-0.883007,3.132349,15.096254,-21.986646,2.113668
0.242000,-0.852566,3.088139,15.313964,-22.192118,2.198560
0.244000,-0.821855,3.043683,15.366459,-22.234078,2.288665
0.246000,-0.791196,2.999298,15.265767,-22.124796,2.383154
0.248000,-0.760872,2.955263,15.035026,-21.887513,2.481079
0.250000,-0.731132,2.911822,14.687943,-21.536699,2.500000
0.252000,-0.702179,2.869173,14.253387,-21.101087,2.500000
0.254000,-0.674157,2.827455,13.761456,-20.610126,2.500000
0.256000,-0.647154,2.786753,13.237224,-20.088017,2.500000
0.258000,-0.621216,2.747111,12.700122,-19.553200,2.500000
0.260000,-0.596353,2.708540,12.164355,-19.018860,2.500000
0.262000,-0.572551,2.671029,11.639780,-18.493881,2.500000
0.264000,-0.549782,2.634554,11.132885,-17.983858,2.500000
0.266000,-0.528005,2.599082,10.647661,-17.492001,2.500000
0.268000,-0.507175,2.564573,10.186321,-17.019854,2.500000
0.270000,-0.487243,2.530989,9.749846,-16.567838,2.500000
0.272000,-0.468159,2.498288,9.338390,-16.135643,2.500000
0.274000,-0.449873,2.466433,8.951564,-15.722507,2.500000
0.276000,-0.432337,2.435386,8.588643,-15.327405,2.500000
0.278000,-0.415504,2.405113,8.248704,-14.949175,2.500000
0.280000,-0.399328,2.375579,7.930721,-14.586606,2.500000
0.282000,-0.383767,2.346756,7.633628,-14.238490,2.500000
0.284000,-0.368780,2.318616,7.356362,-13.903653,2.500000
0.286000,-0.354329,2.291134,7.097888,-13.580981,2.500000
0.288000,-0.340377,2.264285,6.857212,-13.269422,2.500000
0.290000,-0.326889,2.238049,6.633397,-12.968000,2.500000
0.292000,-0.313832,2.212407,6.425560,-12.675805,2.500000
0.294000,-0.301176,2.187340,6.232878,-12.392000,2.500000
0.296000,-0.288891,2.162834,6.054583,-12.115812,2.500000
0.298000,-0.276949,2.138873,5.889964,-11.846533,2.500000
0.300000,-0.265323,2.115444,5.738362,-11.583507,2.500000
0.302000,-0.253987,2.092535,5.599164,-11.326137,2.500000
0.304000,-0.242918,2.070136,5.471805,-11.073871,2.500000
0.306000,-0.232092,2.048236,5.355760,-10.826202,2.500000
0.308000,-0.221488,2.026828,5.250543,-10.582663,2.500000
0.310000,-0.211083,2.005903,5.155703,-10.342827,2.500000
0.312000,-0.200858,1.985455,5.070820,-10.106296,2.500000
0.314000,-0.190794,1.965476,4.995503,-9.872708,2.500000
0.316000,-0.180870,1.945962,4.929389,-9.641725,2.500000
0.318000,-0.171070,1.926908,4.872135,-9.413037,2.500000
0.320000,-0.161376,1.908308,4.823423,-9.186355,2.500000
0.322000,-0.151771,1.890161,4.782952,-8.961416,2.500000
0.324000,-0.142239,1.872462,4.750440,-8.737972,2.500000
0.326000,-0.132764,1.855208,4.725617,-8.515797,2.500000
0.328000,-0.123332,1.838398,4.708229,-8.294680,2.500000
0.330000,-0.113926,1.822029,4.698035,-8.074426,2.500000
0.332000,-0.104535,1.806100,4.694801,-7.854856,2.500000
0.334000,-0.095143,1.790609,4.698305,-7.635804,2.500000
0.336000,-0.085737,1.775556,4.708333,-7.417115,2.500000
0.338000,-0.076305,1.760941,4.724676,-7.198649,2.500000
0.340000,-0.066834,1.746762,4.747131,-6.980277,2.500000
0.342000,-0.057313,1.733019,4.775502,-6.761880,2.500000
0.344000,-0.047729,1.719714,4.809594,-6.543350,2.500000
0.346000,-0.038071,1.706846,4.849216,-6.324589,2.500000
0.348000,-0.028328,1.694416,4.894180,-6.105507,2.500000
0.350000,-0.018490,1.682424,4.944299,-5.886027,2.500000
0.352000,-0.008548,1.670872,4.999387,-5.666076,2.500000
0.354000,0.001510,1.659761,5.059257,-5.445594,2.500000
0.356000,0.011692,1.649090,5.123725,-5.224527,2.500000
0.358000,0.022008,1.638863,5.192604,-5.002829,2.500000
0.360000,0.032466,1.629079,5.265707,-4.780463,2.500000
0.362000,0.043074,1.619741,5.342844,-4.557398,2.500000
0.364000,0.053840,1.610850,5.423826,-4.333613,2.500000
0.366000,0.064771,1.602407,5.508460,-4.109092,2.500000
0.368000,0.075876,1.594414,5.596552,-3.883825,2.500000
0.370000,0.087160,1.586873,5.687905,-3.657813,2.500000
0.372000,0.098629,1.579784,5.782322,-3.431059,2.500000
0.374000,0.110291,1.573149,5.879600,-3.203574,2.500000
0.376000,0.122150,1.566970,5.979538,-2.975377,2.500000
0.378000,0.133962,1.561247,5.833473,-2.748099,-2.500000
0.380000,0.145485,1.555977,5.690133,-2.521486,-2.500000
0.382000,0.156724,1.551160,5.549290,-2.295473,-2.500000
0.384000,0.167684,1.546795,5.410725,-2.069999,-2.500000
0.386000,0.178369,1.542880,5.274221,-1.845003,-2.500000
0.388000,0.188782,1.539414,5.139569,-1.620431,-2.500000
0.390000,0.198928,1.536398,5.006561,-1.396227,-2.500000
0.392000,0.208809,1.533829,4.874995,-1.172340,-2.500000
0.394000,0.218429,1.531708,4.744673,-0.948720,-2.500000
0.396000,0.227789,1.530034,4.615397,-0.725316,-2.500000
0.398000,0.236891,1.528807,4.486974,-0.502080,-2.500000
0.400000,0.245737,1.528026,4.359213,-0.278964,-2.500000
0.402000,0.254328,1.527691,4.231924,-0.055922,-2.500000
0.404000,0.262665,1.527802,4.104922,0.167096,-2.500000
0.406000,0.270997,1.528370,4.226804,0.400369,2.500000
0.408000,0.279572,1.529404,4.348044,0.633545,2.500000
0.410000,0.288388,1.530904,4.468435,0.866562,2.500000
0.412000,0.297445,1.532870,4.587771,1.099359,2.500000
0.414000,0.306739,1.535301,4.705851,1.331877,2.500000
0.416000,0.316267,1.538197,4.822476,1.564057,2.500000
0.418000,0.326027,1.541557,4.937450,1.795843,2.500000
0.420000,0.336016,1.545380,5.050582,2.027180,2.500000
0.422000,0.346228,1.549665,5.161684,2.258019,2.500000
0.424000,0.356661,1.554412,5.270573,2.488309,2.500000
0.426000,0.367309,1.559618,5.377072,2.718005,2.500000
0.428000,0.378168,1.565283,5.481006,2.947067,2.500000
0.430000,0.389231,1.571406,5.582207,3.175456,2.500000
0.432000,0.400246,1.577985,5.432066,3.404062,-2.500000
0.434000,0.410958,1.585023,5.279346,3.633571,-2.500000
0.436000,0.421362,1.592520,5.123846,3.864081,-2.500000
0.438000,0.431451,1.600480,4.965354,4.095695,-2.500000
0.440000,0.441221,1.608904,4.803658,4.328528,-2.500000
0.442000,0.450664,1.617795,4.638536,4.562699,-2.500000
0.444000,0.459773,1.627156,4.469756,4.798337,-2.500000
0.446000,0.468540,1.636989,4.297079,5.035583,-2.500000
0.448000,0.476958,1.647299,4.120258,5.274583,-2.500000
0.450000,0.485018,1.658089,3.939029,5.515500,-2.500000
0.452000,0.492711,1.669363,3.753121,5.758505,-2.500000
0.454000,0.500027,1.681125,3.562245,6.003785,-2.500000
0.456000,0.506957,1.693379,3.366097,6.251541,-2.500000
0.458000,0.513488,1.706132,3.164355,6.501989,-2.500000
0.460000,0.519610,1.719389,2.956677,6.755363,-2.500000
0.462000,0.525310,1.733156,2.742701,7.011917,-2.500000
0.464000,0.530576,1.747439,2.522038,7.271926,-2.500000
0.466000,0.535394,1.762246,2.294272,7.535689,-2.500000
0.468000,0.539748,1.777585,2.058957,7.803530,-2.500000
0.470000,0.543624,1.793463,1.815612,8.075804,-2.500000
0.472000,0.547005,1.809891,1.563720,8.352897,-2.500000
0.474000,0.549873,1.826878,1.302720,8.635231,-2.500000
0.476000,0.552210,1.844436,1.032002,8.923269,-2.500000
0.478000,0.553994,1.862576,0.750906,9.217520,-2.500000
0.480000,0.555206,1.881311,0.458710,9.518545,-2.500000
0.482000,0.555821,1.900655,0.154624,9.826961,-2.500000
0.484000,0.555816,1.920624,-0.162216,10.143451,-2.500000
0.486000,0.555163,1.941234,-0.492761,10.468775,-2.500000
0.488000,0.553835,1.962505,-0.838059,10.803777,-2.500000
0.490000,0.551800,1.984457,-1.199268,11.149396,-2.500000
0.492000,0.549026,2.007111,-1.577670,11.506687,-2.500000
0.494000,0.545477,2.030492,-1.974693,11.876832,-2.500000
0.496000,0.541114,2.054627,-2.391926,12.261160,-2.500000
0.498000,0.535895,2.079547,-2.831146,12.661177,-2.500000
0.500000,0.529774,2.105284,-3.294346,13.078586,-2.500000
0.502000,0.522700,2.131874,-3.783767,13.515325,-2.500000
0.504000,0.514619,2.159359,-4.301939,13.973608,-2.500000
0.506000,0.505471,2.187785,-4.851723,14.455970,-2.500000
0.508000,0.495189,2.217201,-5.436368,14.965323,-2.500000
0.510000,0.483700,2.247666,-6.059571,15.505029,-2.500000
0.512000,0.470922,2.279244,-6.725549,16.078973,-2.500000
0.514000,0.456766,2.312008,-7.439124,16.691664,-2.500000
0.516000,0.441131,2.346040,-8.205812,17.348338,-2.500000
0.518000,0.423903,2.381435,-9.031919,18.055082,-2.500000
0.520000,0.404958,2.418299,-9.924639,18.818960,-2.500000
0.522000,0.384155,2.456754,-10.892121,19.648135,-2.500000
0.524000,0.361334,2.496941,-11.943486,20.551946,-2.500000
0.526000,0.336318,2.539019,-13.088704,21.540882,-2.500000
0.528000,0.308910,2.583169,-14.338215,22.626327,-2.500000
0.530000,0.278889,2.629596,-15.702031,23.819828,-2.500000
0.532000,0.246020,2.678527,-17.187906,25.131472,-2.500000
0.534000,0.210055,2.730204,-18.797830,26.566621,-2.500000
0.536000,0.170752,2.784873,-20.521773,28.119873,-2.500000
0.538000,0.127912,2.842746,-22.327403,29.764894,-2.500000
0.540000,0.081433,2.903953,-24.145469,31.439566,-2.500000
0.542000,0.031402,2.968449,-25.854535,33.030008,-2.500000
0.544000,-0.021795,3.035904,-27.277849,34.366214,-2.500000
0.546000,-0.077384,3.105612,-28.213791,35.251365,-2.500000
0.548000,-0.134220,-3.106680,-28.508705,35.534468,-2.500000
0.550000,-0.190969,-3.035858,-28.133929,35.187903,-2.500000
0.552000,-0.246381,-2.966277,-27.199799,34.321378,-2.500000
0.554000,-0.299520,-2.898796,-25.893460,33.118918,-2.500000
0.556000,-0.349831,-2.833904,-24.399528,31.759335,-2.500000
0.558000,-0.397086,-2.771775,-22.856019,30.373182,-2.500000
0.560000,-0.441280,-2.712377,-21.348466,29.038302,-2.500000
0.562000,-0.482535,-2.655562,-19.921994,27.792944,-2.500000
0.564000,-0.521035,-2.601136,-18.595833,26.650717,-2.500000
0.566000,-0.556988,-2.548890,-17.374409,25.611730,-2.500000
0.568000,-0.590600,-2.498624,-16.254453,24.669524,-2.500000
0.570000,-0.622069,-2.450154,-15.229141,23.814995,-2.500000
0.572000,-0.651575,-2.403312,-14.290358,23.038445,-2.500000
0.574000,-0.679283,-2.357954,-13.429872,22.330581,-2.500000
0.576000,-0.705341,-2.313950,-12.639903,21.682936,-2.500000
0.578000,-0.729884,-2.271187,-11.913355,21.088001,-2.500000
0.580000,-0.753033,-2.229567,-11.243888,20.539214,-2.500000
0.582000,-0.774894,-2.189003,-10.625894,20.030884,-2.500000
0.584000,-0.795567,-2.149420,-10.054444,19.558088,-2.500000
0.586000,-0.814993,-2.110826,-9.379876,19.042174,-0.173902
0.588000,-0.833116,-2.073229,-8.750229,18.560949,-0.123294
0.590000,-0.850020,-2.036562,-8.161122,18.110428,-0.075691
0.592000,-0.865784,-2.000769,-7.608738,17.687189,-0.030949
0.594000,-0.880476,-1.965798,-7.089736,17.288284,0.011068
0.596000,-0.894162,-1.931602,-6.601188,16.911161,0.050488
0.598000,-0.906899,-1.898140,-6.140513,16.553603,0.087428
0.600000,-0.918741,-1.865376,-5.705434,16.213674,0.122000
0.602000,-0.929736,-1.833275,-5.293935,15.889679,0.154309
0.604000,-0.939930,-1.801808,-4.904224,15.580125,0.184453
0.606000,-0.949366,-1.770946,-4.534704,15.283693,0.212524
0.608000,-0.958081,-1.740665,-4.183953,14.999214,0.238612
0.610000,-0.966113,-1.710942,-3.850696,14.725645,0.262800
0.612000,-0.973495,-1.681756,-3.533790,14.462053,0.285167
0.614000,-0.980258,-1.653088,-3.232208,14.207603,0.305789
0.616000,-0.986433,-1.624920,-2.945026,13.961540,0.324739
0.618000,-0.992047,-1.597236,-2.671412,13.723182,0.342085
0.620000,-0.997127,-1.570022,-2.410616,13.491908,0.357894
0.622000,-1.001622,-1.543264,-2.086396,13.268186,1.892281
0.624000,-1.005481,-1.516944,-1.774865,13.052355,1.881235
0.626000,-1.008729,-1.491049,-1.475154,12.843874,1.871813
0.628000,-1.011389,-1.465564,-1.186468,12.642259,1.863927
0.630000,-1.013482,-1.440476,-0.908075,12.447077,1.857500
0.632000,-1.015028,-1.415772,-0.639304,12.257940,1.852461
0.634000,-1.016045,-1.391440,-0.379535,12.074502,1.848750
0.636000,-1.016552,-1.367470,-0.128191,11.896450,1.846313
0.638000,-1.016563,-1.343851,0.115261,11.723508,1.845101
0.640000,-1.016095,-1.320573,0.351322,11.555427,1.845073
0.642000,-1.015163,-1.297626,0.580457,11.391987,1.846193
0.644000,-1.013778,-1.275002,0.803107,11.232991,1.848427
0.646000,-1.011954,-1.252692,1.019686,11.078267,1.851750
0.648000,-1.009703,-1.230686,1.230586,10.927665,1.856138
0.650000,-1.007035,-1.208978,1.436182,10.781055,1.861571
0.652000,-1.003961,-1.187560,1.636832,10.638325,1.868035
0.654000,-1.000491,-1.166422,1.832878,10.499383,1.875516
0.656000,-0.996632,-1.145559,2.024652,10.364155,1.884007
0.658000,-0.992395,-1.124963,2.212478,10.232582,1.893500
0.660000,-0.987785,-1.104627,2.396668,10.104625,1.903992
0.662000,-0.982810,-1.084542,2.577532,9.980258,1.915484
0.664000,-0.977476,-1.064703,2.755373,9.859474,1.927976
0.666000,-0.971790,-1.045102,2.930494,9.742282,1.941474
0.668000,-0.965756,-1.025731,3.103195,9.628707,1.955985
0.670000,-0.959378,-1.006584,3.273779,9.518791,1.971518
0.672000,-0.952661,-0.987654,3.442550,9.412593,1.988086
0.674000,-0.945609,-0.968931,3.609816,9.310190,2.005704
0.676000,-0.938223,-0.950410,3.775893,9.211678,2.024388
0.678000,-0.930505,-0.932082,3.941102,9.117171,2.044159
0.680000,-0.922458,-0.913938,4.105774,9.026804,2.065039
0.682000,-0.914082,-0.895971,4.270253,8.940733,2.087054
