t,theta,alpha,theta_dot,alpha_dot,voltage
0.000000,0.000407,-3.141056,-0.000000,0.000000,0.000000
0.002000,-0.000043,-3.141147,-0.553429,0.531437,-2.500000
0.004000,-0.001453,-3.138636,-1.101016,1.057021,-2.500000
0.006000,-0.005644,-3.137260,-1.642088,1.575868,-2.500000
0.008000,-0.008390,-3.133878,-2.175918,2.087041,-2.500000
0.010000,-0.014087,-3.129724,-2.701692,2.589529,-2.500000
0.012000,-0.020064,-3.122147,-3.218489,3.082218,-2.500000
0.014000,-0.027631,-3.116294,-3.725265,3.563886,-2.500000
0.016000,-0.034510,-3.110457,-4.220843,4.033190,-2.500000
0.018000,-0.044602,-3.100110,-4.703917,4.488669,-2.500000
0.020000,-0.053514,-3.090108,-5.173065,4.928761,-2.500000
0.022000,-0.062556,-3.080574,-5.626764,5.351823,-2.500000
0.024000,-0.074074,-3.068695,-6.063432,5.756164,-2.500000
0.026000,-0.089802,-3.056351,-6.481463,6.140093,-2.500000
0.028000,-0.101649,-3.045532,-6.879287,6.501966,-2.500000
0.030000,-0.115004,-3.030595,-7.255420,6.840247,-2.500000
0.032000,-0.130136,-3.016558,-7.608529,7.153566,-2.500000
0.034000,-0.147459,-3.002302,-7.937489,7.440776,-2.500000
0.036000,-0.163465,-2.987670,-8.241433,7.701003,-2.500000
0.038000,-0.181476,-2.972922,-8.519794,7.933684,-2.500000
0.040000,-0.196155,-2.955822,-8.772329,8.138592,-2.500000
0.042000,-0.213855,-2.939042,-8.999132,8.315840,-2.500000
0.044000,-0.233186,-2.922362,-9.200628,8.465876,-2.500000
0.046000,-0.251877,-2.905741,-9.377548,8.589456,-2.500000
0.048000,-0.270388,-2.886870,-9.530899,8.687609,-2.500000
0.050000,-0.290011,-2.871179,-9.661917,8.761588,-2.500000
0.052000,-0.310626,-2.853719,-9.772018,8.812819,-2.500000
0.054000,-0.327672,-2.836139,-9.862749,8.842852,-2.500000
0.056000,-0.348110,-2.816400,-9.935737,8.853309,-2.500000
0.058000,-0.367765,-2.801348,-9.992645,8.845836,-2.500000
0.060000,-0.386893,-2.781385,-10.035128,8.822066,-2.500000
0.062000,-0.407334,-2.763938,-10.064806,8.783589,-2.500000
0.064000,-0.428281,-2.748334,-10.083234,8.731922,-2.500000
0.066000,-0.448016,-2.729659,-10.091886,8.668496,-2.500000
0.068000,-0.468815,-2.713257,-10.092140,8.594639,-2.500000
0.070000,-0.489314,-2.695736,-10.085270,8.511578,-2.500000
0.072000,-0.509283,-2.679902,-10.072445,8.420426,-2.500000
0.074000,-0.526738,-2.662501,-10.054725,8.322195,-2.500000
0.076000,-0.548893,-2.645532,-10.033070,8.217789,-2.500000
0.078000,-0.568224,-2.628547,-10.008339,8.108016,-2.500000
0.080000,-0.589750,-2.613246,-9.981297,7.993594,-2.500000
0.082000,-0.609248,-2.597649,-9.952624,7.875156,-2.500000
0.084000,-0.628673,-2.580226,-9.922920,7.753259,-2.500000
0.086000,-0.649896,-2.566315,-9.892712,7.628390,-2.500000
0.088000,-0.667848,-2.549224,-9.862460,7.500974,-2.500000
0.090000,-0.686723,-2.536088,-9.832566,7.371383,-2.500000
0.092000,-0.709817,-2.520759,-9.803377,7.239937,-2.500000
0.094000,-0.727178,-2.506527,-9.775195,7.106913,-2.500000
0.096000,-0.746212,-2.491625,-9.748277,6.972552,-2.500000
0.098000,-0.766252,-2.477890,-9.722843,6.837060,-2.500000
0.100000,-0.785665,-2.465137,-9.699081,6.700613,-2.500000
0.102000,-0.805931,-2.453471,-9.464673,6.404522,-0.199532
0.104000,-0.823170,-2.441731,-9.235868,6.111174,-0.146956
0.106000,-0.841026,-2.428809,-9.012953,5.820787,-0.101863
0.108000,-0.860365,-2.416739,-8.795338,5.532937,-0.054795
0.110000,-0.877128,-2.406367,-8.582246,5.247079,-0.003407
0.112000,-0.894133,-2.396003,-8.373851,4.963355,0.041483
0.114000,-0.908781,-2.385070,-8.169671,4.681441,0.087348
0.116000,-0.925693,-2.377678,-7.969819,4.401440,0.127124
0.118000,-0.942606,-2.367722,-7.773361,4.122723,0.173353
0.120000,-0.958217,-2.362838,-7.579890,3.845041,0.219913
0.122000,-0.971515,-2.353397,-7.389300,3.568350,0.263178
0.124000,-0.986074,-2.345951,-7.201712,3.292764,0.300253
0.126000,-1.002903,-2.340764,-7.016442,3.017851,0.341075
0.128000,-1.014281,-2.334701,-6.832590,2.743045,0.388568
0.130000,-1.030283,-2.329442,-6.650994,2.468938,0.420861
0.132000,-1.041802,-2.326049,-6.470229,2.194621,0.466529
0.134000,-1.056019,-2.320549,-6.290918,1.920541,0.499582
0.136000,-1.066202,-2.315245,-6.112072,1.646085,0.540590
0.138000,-1.078092,-2.314694,-5.934214,1.371629,0.570104
0.140000,-1.091951,-2.310478,-5.756577,1.096708,0.604716
0.142000,-1.100270,-2.309116,-5.578335,0.820821,0.645261
0.144000,-1.112906,-2.307878,-5.400351,0.544559,0.669707
0.146000,-1.125613,-2.307518,-5.221262,0.267075,0.706988
0.148000,-1.134671,-2.307788,-5.040660,-0.011868,0.744665
0.150000,-1.143348,-2.308670,-4.796485,-0.332335,1.589241
0.152000,-1.153624,-2.308577,-4.554214,-0.652166,1.572548
0.154000,-1.163254,-2.310114,-4.313507,-0.971558,1.553149
0.156000,-1.169647,-2.310433,-4.073696,-1.290917,1.535336
0.158000,-1.178090,-2.314191,-3.833765,-1.610880,1.523705
0.160000,-1.187503,-2.317613,-3.593438,-1.931605,1.508587
0.162000,-1.192957,-2.323062,-3.352281,-2.253359,1.492051
0.164000,-1.198545,-2.327859,-3.109185,-2.576850,1.482624
0.166000,-1.205490,-2.332521,-2.863592,-2.902439,1.473083
0.168000,-1.211925,-2.338719,-2.615091,-3.230389,1.461394
0.170000,-1.215151,-2.344514,-2.363006,-3.561152,1.450726
0.172000,-1.221252,-2.355737,-2.106284,-3.895436,1.445438
0.174000,-1.224260,-2.361827,-1.844652,-4.233441,1.435545
0.176000,-1.227556,-2.371985,-1.577021,-4.575925,1.430719
0.178000,-1.230983,-2.379407,-1.302714,-4.923385,1.425473
0.180000,-1.232247,-2.389196,-1.020994,-5.276367,1.420061
0.182000,-1.234205,-2.399563,-0.730774,-5.635679,1.418076
0.184000,-1.236740,-2.413325,-0.431295,-6.001916,1.415014
0.186000,-1.235630,-2.423623,-0.121736,-6.375737,1.411070
0.188000,-1.235131,-2.437694,0.199375,-6.758284,1.412795
0.190000,-1.235445,-2.450175,0.533000,-7.150362,1.413571
0.192000,-1.231898,-2.465299,0.880140,-7.552822,1.413082
0.194000,-1.233169,-2.483295,1.242565,-7.967119,1.418623
0.196000,-1.229245,-2.498417,1.620848,-8.393831,1.416632
0.198000,-1.226666,-2.514613,2.017167,-8.834789,1.422800
0.200000,-1.220123,-2.534125,2.432807,-9.291178,1.426886
0.202000,-1.215336,-2.551583,2.870032,-9.764982,1.437364
0.204000,-1.209751,-2.571858,3.330262,-10.257564,1.445136
0.206000,-1.201450,-2.592439,3.815423,-10.770727,1.454312
0.208000,-1.194674,-2.618681,4.327891,-11.306681,1.468172
0.210000,-1.185802,-2.638043,4.869242,-11.867023,1.479680
0.212000,-1.174843,-2.664203,5.441716,-12.453933,1.495013
0.214000,-1.163927,-2.688020,6.047434,-13.069529,1.514368
0.216000,-1.149259,-2.716515,6.687701,-13.715250,1.534103
0.218000,-1.136165,-2.743385,7.364192,-14.392861,1.561339
0.220000,-1.120610,-2.774258,8.076218,-15.102029,1.586345
0.222000,-1.104799,-2.804763,8.822647,-15.841949,1.616905
0.224000,-1.085741,-2.837793,9.599437,-16.609084,1.648912
0.226000,-1.065305,-2.871092,10.400392,-17.397753,1.688764
0.228000,-1.044379,-2.905649,11.214495,-18.197587,1.733038
0.230000,-1.022654,-2.944249,12.025008,-18.992570,1.780025
0.232000,-0.995401,-2.982443,12.809185,-19.760649,1.830577
0.234000,-0.969300,-3.022626,13.540827,-20.476125,1.896543
0.236000,-0.940108,-3.063851,14.186464,-21.106085,1.962377
0.238000,-0.913681,-3.105047,14.714543,-21.619306,2.039091
0.240000,-0.883459,3.132837,15.095210,-21.986323,2.111349
0.242000,-0.850582,3.090751,15.313359,-22.192237,2.197250
0.244000,-0.823377,3.043597,15.367838,-22.236118,2.294660
0.246000,-0.790272,3.000455,15.266710,-22.126440,2.378389
0.248000,-0.760957,2.956118,15.037036,-21.890184,2.484086
0.250000,-0.729657,2.910646,14.690251,-21.539665,2.500000
0.252000,-0.703070,2.869938,14.255863,-21.104222,2.500000
0.254000,-0.675260,2.828676,13.763993,-20.613327,2.500000
0.256000,-0.646314,2.786358,13.239742,-20.091209,2.500000
0.258000,-0.623809,2.746720,12.702565,-19.556330,2.500000
0.260000,-0.596048,2.706765,12.166684,-19.021895,2.500000
0.262000,-0.573140,2.671786,11.641975,-18.496803,2.500000
0.264000,-0.550636,2.633044,11.134934,-17.986658,2.500000
0.266000,-0.527776,2.599979,10.649560,-17.494679,2.500000
0.268000,-0.506441,2.564683,10.188071,-17.022412,2.500000
0.270000,-0.486572,2.529995,9.751452,-16.570282,2.500000
0.272000,-0.467453,2.499859,9.339856,-16.137980,2.500000
0.274000,-0.449901,2.465354,8.952898,-15.724745,2.500000
0.276000,-0.431970,2.434939,8.589853,-15.329551,2.500000
0.278000,-0.415490,2.404793,8.249797,-14.951238,2.500000
0.280000,-0.399905,2.375792,7.931704,-14.588592,2.500000
0.282000,-0.384499,2.346317,7.634508,-14.240406,2.500000
0.284000,-0.367601,2.319181,7.357146,-13.905506,2.500000
0.286000,-0.353911,2.291315,7.098580,-13.582776,2.500000
0.288000,-0.340511,2.264596,6.857820,-13.271165,2.500000
0.290000,-0.325184,2.239557,6.633924,-12.969695,2.500000
0.292000,-0.313829,2.213487,6.426012,-12.677457,2.500000
0.294000,-0.301205,2.188476,6.233259,-12.393612,2.500000
0.296000,-0.288420,2.163714,6.054898,-12.117389,2.500000
0.298000,-0.276637,2.138297,5.890217,-11.848077,2.500000
0.300000,-0.265489,2.116874,5.738555,-11.585023,2.500000
0.302000,-0.254065,2.093433,5.599301,-11.327626,2.500000
0.304000,-0.243925,2.068741,5.471888,-11.075335,2.500000
0.306000,-0.232536,2.047285,5.355793,-10.827644,2.500000
0.308000,-0.220012,2.025692,5.250528,-10.584086,2.500000
0.310000,-0.210706,2.005371,5.155642,-10.344231,2.500000
0.312000,-0.201598,1.986191,5.070716,-10.107684,2.500000
0.314000,-0.190930,1.966099,4.995358,-9.874081,2.500000
0.316000,-0.181670,1.945446,4.929204,-9.643084,2.500000
0.318000,-0.171751,1.926804,4.871913,-9.414383,2.500000
0.320000,-0.163012,1.910712,4.823166,-9.187691,2.500000
0.322000,-0.151542,1.890447,4.782661,-8.962741,2.500000
0.324000,-0.143859,1.873047,4.750116,-8.739288,2.500000
0.326000,-0.135288,1.855885,4.725263,-8.517105,2.500000
0.328000,-0.123033,1.837390,4.707846,-8.295980,2.500000
0.330000,-0.112183,1.820921,4.697624,-8.075719,2.500000
0.332000,-0.105389,1.806729,4.694364,-7.856143,2.500000
0.334000,-0.096714,1.791251,4.697843,-7.637084,2.500000
0.336000,-0.085091,1.774522,4.707847,-7.418390,2.500000
0.338000,-0.075193,1.761189,4.724167,-7.199919,2.500000
0.340000,-0.066477,1.748086,4.746602,-6.981542,2.500000
0.342000,-0.057669,1.733853,4.774953,-6.763141,2.500000
0.344000,-0.046434,1.719497,4.809026,-6.544607,2.500000
0.346000,-0.038371,1.706586,4.848631,-6.325841,2.500000
0.348000,-0.027244,1.693796,4.893578,-6.106756,2.500000
0.350000,-0.019402,1.684658,4.943682,-5.887271,2.500000
0.352000,-0.007712,1.670461,4.998756,-5.667317,2.500000
0.354000,0.001572,1.658679,5.058615,-5.446831,2.500000
0.356000,0.009608,1.649160,5.123071,-5.225760,2.500000
0.358000,0.022696,1.638486,5.191940,-5.004058,2.500000
0.360000,0.032911,1.628661,5.265034,-4.781688,2.500000
0.362000,0.041234,1.619435,5.342163,-4.558619,2.500000
0.364000,0.055645,1.611270,5.423138,-4.334829,2.500000
0.366000,0.064784,1.602602,5.507767,-4.110303,2.500000
0.368000,0.076037,1.594972,5.595854,-3.885032,2.500000
0.370000,0.087046,1.586740,5.687205,-3.659015,2.500000
0.372000,0.097751,1.580870,5.781620,-3.432255,2.500000
0.374000,0.110432,1.572575,5.878898,-3.204765,2.500000
0.376000,0.121244,1.567667,5.978835,-2.976561,2.500000
0.378000,0.133765,1.561138,5.832773,-2.749290,-2.500000
0.380000,0.145182,1.555368,5.689434,-2.522685,-2.500000
0.382000,0.157107,1.551150,5.548595,-2.296680,-2.500000
0.384000,0.165870,1.548644,5.410033,-2.071213,-2.500000
0.386000,0.179389,1.540979,5.273535,-1.846225,-2.500000
0.388000,0.187649,1.539252,5.138888,-1.621661,-2.500000
0.390000,0.198721,1.537555,5.005887,-1.397466,-2.500000
0.392000,0.209289,1.533985,4.874330,-1.173588,-2.500000
0.394000,0.217308,1.529869,4.744015,-0.949976,-2.500000
0.396000,0.227707,1.529445,4.614749,-0.726581,-2.500000
0.398000,0.236928,1.530549,4.486337,-0.503355,-2.500000
0.400000,0.244797,1.527489,4.358587,-0.280249,-2.500000
0.402000,0.253416,1.526562,4.231311,-0.057216,-2.500000
0.404000,0.263290,1.527025,4.104322,0.165791,-2.500000
0.406000,0.270839,1.527682,4.226221,0.399075,2.500000
0.408000,0.279544,1.529905,4.347478,0.632262,2.500000
0.410000,0.287386,1.529882,4.467887,0.865291,2.500000
0.412000,0.296523,1.531612,4.587242,1.098100,2.500000
0.414000,0.306617,1.534896,4.705342,1.330630,2.500000
0.416000,0.318677,1.536993,4.821988,1.562823,2.500000
0.418000,0.324782,1.541923,4.936983,1.794621,2.500000
0.420000,0.335931,1.547164,5.050138,2.025972,2.500000
0.422000,0.346235,1.549469,5.161263,2.256823,2.500000
0.424000,0.356724,1.553679,5.270176,2.487126,2.500000
0.426000,0.367350,1.557468,5.376699,2.716836,2.500000
0.428000,0.378781,1.564963,5.480659,2.945911,2.500000
0.430000,0.388464,1.571983,5.581886,3.174313,2.500000
0.432000,0.400591,1.579059,5.431771,3.402904,-2.500000
0.434000,0.410108,1.584747,5.279079,3.632397,-2.500000
0.436000,0.420120,1.592421,5.123607,3.862889,-2.500000
0.438000,0.432360,1.599875,4.965146,4.094486,-2.500000
0.440000,0.441590,1.606866,4.803482,4.327300,-2.500000
0.442000,0.450557,1.616952,4.638392,4.561451,-2.500000
0.444000,0.459018,1.628764,4.469646,4.797069,-2.500000
0.446000,0.468817,1.636140,4.297006,5.034292,-2.500000
0.448000,0.474768,1.647094,4.120222,5.273270,-2.500000
0.450000,0.485124,1.657231,3.939033,5.514162,-2.500000
0.452000,0.492859,1.668103,3.753166,5.757142,-2.500000
0.454000,0.499085,1.682858,3.562333,6.002395,-2.500000
0.456000,0.506860,1.694002,3.366230,6.250122,-2.500000
0.458000,0.512783,1.706864,3.164536,6.500539,-2.500000
0.460000,0.517321,1.720230,2.956909,6.753881,-2.500000
0.462000,0.525207,1.733622,2.742986,7.010401,-2.500000
0.464000,0.531001,1.747076,2.522378,7.270373,-2.500000
0.466000,0.535781,1.763350,2.294671,7.534097,-2.500000
0.468000,0.538935,1.777964,2.059418,7.801897,-2.500000
0.470000,0.540861,1.793196,1.816140,8.074126,-2.500000
0.472000,0.547050,1.810320,1.564318,8.351171,-2.500000
0.474000,0.547995,1.826418,1.303391,8.633454,-2.500000
0.476000,0.551457,1.843886,1.032753,8.921437,-2.500000
0.478000,0.551922,1.862522,0.751741,9.215629,-2.500000
0.480000,0.555773,1.880769,0.459635,9.516590,-2.500000
0.482000,0.557684,1.900807,0.155645,9.824936,-2.500000
0.484000,0.556588,1.919471,-0.161092,10.141352,-2.500000
0.486000,0.556243,1.940035,-0.491526,10.466595,-2.500000
0.488000,0.552848,1.962149,-0.836705,10.801507,-2.500000
0.490000,0.550907,1.985044,-1.197785,11.147030,-2.500000
0.492000,0.549405,2.007462,-1.576049,11.504216,-2.500000
0.494000,0.545086,2.027831,-1.972921,11.874244,-2.500000
0.496000,0.541773,2.054685,-2.389990,12.258446,-2.500000
0.498000,0.535634,2.079199,-2.829031,12.658323,-2.500000
0.500000,0.528426,2.104778,-3.292036,13.075577,-2.500000
0.502000,0.521348,2.129460,-3.781244,13.512145,-2.500000
0.504000,0.515200,2.159455,-4.299180,13.970237,-2.500000
0.506000,0.504389,2.188037,-4.848706,14.452386,-2.500000
0.508000,0.495034,2.215812,-5.433064,14.961502,-2.500000
0.510000,0.482782,2.245883,-6.055950,15.500940,-2.500000
0.512000,0.471108,2.278669,-6.721575,16.074584,-2.500000
0.514000,0.454720,2.311601,-7.434756,16.686935,-2.500000
0.516000,0.441247,2.345218,-8.201003,17.343224,-2.500000
0.518000,0.423863,2.380517,-9.026615,18.049529,-2.500000
0.520000,0.405021,2.419319,-9.918780,18.812908,-2.500000
0.522000,0.382829,2.456429,-10.885639,19.641513,-2.500000
0.524000,0.362890,2.498217,-11.936304,20.544674,-2.500000
0.526000,0.337611,2.536993,-13.080741,21.532873,-2.500000
0.528000,0.309174,2.583122,-14.329389,22.617488,-2.500000
0.530000,0.276741,2.628424,-15.692270,23.810072,-2.500000
0.532000,0.246248,2.678644,-17.177170,25.120734,-2.500000
0.534000,0.211289,2.727509,-18.786147,26.554896,-2.500000
0.536000,0.169837,2.784352,-20.509307,28.107284,-2.500000
0.538000,0.128588,2.844516,-22.314556,29.751787,-2.500000
0.540000,0.083139,2.904412,-24.133008,31.426652,-2.500000
0.542000,0.032854,2.968274,-25.843695,33.018465,-2.500000
0.544000,-0.022525,3.035193,-27.270243,34.357610,-2.500000
0.546000,-0.075381,3.106113,-28.210969,35.247228,-2.500000
0.548000,-0.133432,-3.109120,-28.511455,35.535576,-2.500000
0.550000,-0.190576,-3.037393,-28.141832,35.193843,-2.500000
0.552000,-0.246020,-2.967756,-27.211490,34.330805,-2.500000
0.554000,-0.299146,-2.897972,-25.907309,33.130243,-2.500000
0.556000,-0.351940,-2.833784,-24.414180,31.771266,-2.500000
0.558000,-0.396024,-2.771543,-22.870573,30.384885,-2.500000
0.560000,-0.441370,-2.713041,-21.362418,29.049335,-2.500000
0.562000,-0.481967,-2.657665,-19.935107,27.803121,-2.500000
0.564000,-0.520174,-2.601403,-18.608030,26.660003,-2.500000
0.566000,-0.558227,-2.548379,-17.385701,25.620165,-2.500000
0.568000,-0.589642,-2.498391,-16.264891,24.677181,-2.500000
0.570000,-0.621181,-2.448978,-15.238794,23.821958,-2.500000
0.572000,-0.651116,-2.404797,-14.299296,23.044797,-2.500000
0.574000,-0.679539,-2.356219,-13.438167,22.336397,-2.500000
0.576000,-0.706317,-2.313644,-12.647618,21.688283,-2.500000
0.578000,-0.730079,-2.270903,-11.920549,21.092939,-2.500000
0.580000,-0.752558,-2.228534,-11.250611,20.543795,-2.500000
0.582000,-0.774443,-2.189483,-10.632191,20.035151,-2.500000
0.584000,-0.794628,-2.149509,-10.060354,19.562080,-2.500000
0.586000,-0.814398,-2.112111,-9.385549,19.045947,-0.176338
0.588000,-0.833013,-2.072863,-8.755641,18.564504,-0.124849
0.590000,-0.849261,-2.035999,-8.166226,18.113755,-0.075961
0.592000,-0.865260,-1.999868,-7.613663,17.690356,-0.032966
0.594000,-0.879368,-1.966231,-7.094470,17.291294,0.009667
0.596000,-0.894155,-1.932584,-6.605837,16.914062,0.047505
0.598000,-0.908658,-1.898069,-6.144933,16.556353,0.087409
0.600000,-0.917642,-1.866210,-5.709387,16.216213,0.126789
0.602000,-0.929030,-1.833343,-5.297854,15.892138,0.151305
0.604000,-0.942177,-1.801077,-4.908064,15.582497,0.182513
0.606000,-0.949587,-1.772370,-4.538059,15.285899,0.218727
0.608000,-0.959639,-1.741429,-4.187125,15.001322,0.239226
0.610000,-0.966628,-1.708884,-3.853508,14.727637,0.267133
0.612000,-0.972261,-1.683569,-3.536400,14.463961,0.286604
0.614000,-0.981023,-1.652870,-3.234870,14.209457,0.302339
0.616000,-0.987028,-1.625931,-2.947467,13.963323,0.326885
0.618000,-0.991583,-1.598460,-2.673663,13.724903,0.343760
0.620000,-0.998372,-1.570093,-2.412831,13.493577,0.356588
0.622000,-1.001293,-1.543077,-2.088670,13.269787,1.889213
0.624000,-1.004740,-1.516902,-1.777011,13.053897,1.882040
0.626000,-1.008025,-1.492562,-1.477128,12.845364,1.873617
0.628000,-1.012016,-1.466708,-1.188279,12.643703,1.865634
0.630000,-1.013858,-1.440686,-0.909890,12.448461,1.855988
0.632000,-1.015344,-1.416787,-0.641097,12.259270,1.851556
0.634000,-1.016615,-1.394100,-0.381303,12.075780,1.847992
0.636000,-1.018076,-1.368072,-0.129970,11.897673,1.844950
0.638000,-1.017291,-1.343754,0.113349,11.724651,1.841461
0.640000,-1.015344,-1.318821,0.349370,11.556509,1.843335
0.642000,-1.014581,-1.299347,0.578647,11.393054,1.847992
0.644000,-1.014700,-1.275783,0.801416,11.234041,1.849822
0.646000,-1.012430,-1.252015,1.017919,11.079247,1.849536
0.648000,-1.009535,-1.229006,1.228796,10.928591,1.854991
0.650000,-1.008185,-1.208377,1.434451,10.781953,1.861978
0.652000,-1.005403,-1.186896,1.634979,10.639136,1.865246
0.654000,-1.000606,-1.166642,1.830857,10.500088,1.872003
0.656000,-0.996975,-1.145861,2.022641,10.364820,1.883724
0.658000,-0.992430,-1.126369,2.210441,10.233194,1.892654
0.660000,-0.987596,-1.104300,2.394647,10.105201,1.903904
0.662000,-0.983563,-1.086756,2.575558,9.980814,1.915955
0.664000,-0.976342,-1.065238,2.753301,9.859945,1.926078
0.666000,-0.972562,-1.044089,2.928614,9.742803,1.944358
0.668000,-0.967607,-1.025785,3.101206,9.629134,1.954007
0.670000,-0.959820,-1.008969,3.271495,9.519029,1.966737
0.672000,-0.953861,-0.987065,3.440195,9.412756,1.986932
0.674000,-0.944575,-0.968488,3.607254,9.310203,2.002545
0.676000,-0.939319,-0.949641,3.773512,9.211753,2.027142
0.678000,-0.932377,-0.933368,3.938516,9.117091,2.041210
0.680000,-0.924375,-0.916256,4.102825,9.026476,2.059956
0.682000,-0.914223,-0.897055,4.266912,8.940135,2.081787
